Freq.	Vn001)
1.00000000000000e+01	6.65579844202825e+01	-2.42517489558336e-03
1.00200000000000e+04	6.65526613684435e+01	-2.42927014739001e+00
2.00300000000000e+04	6.65367476837480e+01	-4.85160575307572e+00
3.00400000000000e+04	6.65103452147460e+01	-7.26498755434933e+00
4.00500000000000e+04	6.64736211235840e+01	-9.66508985024209e+00
5.00600000000000e+04	6.64268041985515e+01	-1.20477600393478e+01
6.00700000000000e+04	6.63701799368317e+01	-1.44090673634532e+01
7.00800000000000e+04	6.63040846083124e+01	-1.67453446915974e+01
8.00900000000000e+04	6.62288985548685e+01	-1.90532224073485e+01
9.01000000000000e+04	6.61450389889362e+01	-2.13296538766063e+01
1.00110000000000e+05	6.60529525557428e+01	-2.35719323862137e+01
1.10120000000000e+05	6.59531079072324e+01	-2.57776998181765e+01
1.20130000000000e+05	6.58459885083564e+01	-2.79449476418001e+01
1.30140000000000e+05	6.57320858579899e+01	-3.00720110425222e+01
1.40150000000000e+05	6.56118932684348e+01	-3.21575571765296e+01
1.50160000000000e+05	6.54859003042819e+01	-3.42005686251099e+01
1.60170000000000e+05	6.53545879402121e+01	-3.62003231365251e+01
1.70180000000000e+05	6.52184244643312e+01	-3.81563707169038e+01
1.80190000000000e+05	6.50778621202104e+01	-4.00685090411262e+01
1.90200000000000e+05	6.49333344574439e+01	-4.19367580481617e+01
2.00210000000000e+05	6.47852543418740e+01	-4.37613344567389e+01
2.10220000000000e+05	6.46340125651184e+01	-4.55426268093107e+01
2.20230000000000e+05	6.44799769842175e+01	-4.72811715143440e+01
2.30240000000000e+05	6.43234921201054e+01	-4.89776302388255e+01
2.40250000000000e+05	6.41648791445815e+01	-5.06327688975050e+01
2.50260000000000e+05	6.40044361870206e+01	-5.22474383820640e+01
2.60270000000000e+05	6.38424388992869e+01	-5.38225571105040e+01
2.70280000000000e+05	6.36791412194487e+01	-5.53590953871139e+01
2.80290000000000e+05	6.35147762876809e+01	-5.68580615601299e+01
2.90300000000000e+05	6.33495574664356e+01	-5.83204898682727e+01
3.00310000000000e+05	6.31836794309628e+01	-5.97474298984488e+01
3.10320000000000e+05	6.30173192980978e+01	-6.11399375287015e+01
3.20330000000000e+05	6.28506377674949e+01	-6.24990672245232e+01
3.30340000000000e+05	6.26837802559407e+01	-6.38258655668318e+01
3.40350000000000e+05	6.25168780087347e+01	-6.51213658826158e+01
3.50360000000000e+05	6.23500491754661e+01	-6.63865838476654e+01
3.60370000000000e+05	6.21833998421049e+01	-6.76225139518609e+01
3.70380000000000e+05	6.20170250130594e+01	-6.88301267162209e+01
3.80390000000000e+05	6.18510095388754e+01	-7.00103665564356e+01
3.90400000000000e+05	6.16854289881989e+01	-7.11641502113895e+01
4.00410000000000e+05	6.15203504626927e+01	-7.22923656478046e+01
4.10420000000000e+05	6.13558333554454e+01	-7.33958713699755e+01
4.20430000000000e+05	6.11919300541345e+01	-7.44754960703395e+01
4.30440000000000e+05	6.10286865906766e+01	-7.55320385625745e+01
4.40450000000000e+05	6.08661432400994e+01	-7.65662679547905e+01
4.50460000000000e+05	6.07043350703059e+01	-7.75789240050316e+01
4.60470000000000e+05	6.05432924466288e+01	-7.85707176404854e+01
4.70480000000000e+05	6.03830414930520e+01	-7.95423315921802e+01
4.80490000000000e+05	6.02236045134085e+01	-8.04944211245109e+01
4.90500000000000e+05	6.00650003757236e+01	-8.14276148441050e+01
5.00510000000000e+05	5.99072448616078e+01	-8.23425155508956e+01
5.10520000000000e+05	5.97503509841129e+01	-8.32397011300318e+01
5.20530000000000e+05	5.95943292762472e+01	-8.41197254641633e+01
5.30540000000000e+05	5.94391880527050e+01	-8.49831193585113e+01
5.40550000000000e+05	5.92849336468004e+01	-8.58303914627988e+01
5.50560000000000e+05	5.91315706249901e+01	-8.66620291892863e+01
5.60570000000000e+05	5.89791019807404e+01	-8.74784996153051e+01
5.70580000000000e+05	5.88275293098218e+01	-8.82802503734184e+01
5.80590000000000e+05	5.86768529683067e+01	-8.90677105133887e+01
5.90600000000000e+05	5.85270722151581e+01	-8.98412913427441e+01
6.00610000000000e+05	5.83781853407716e+01	-9.06013872435332e+01
6.10620000000000e+05	5.82301897825239e+01	-9.13483764535499e+01
6.20630000000000e+05	5.80830822289103e+01	-9.20826218259745e+01
6.30640000000000e+05	5.79368587130142e+01	-9.28044715536084e+01
6.40650000000000e+05	5.77915146965447e+01	-9.35142598671017e+01
6.50660000000000e+05	5.76470451451700e+01	-9.42123076993849e+01
6.60670000000000e+05	5.75034445961532e+01	-9.48989233260504e+01
6.70680000000000e+05	5.73607072188027e+01	-9.55744029684584e+01
6.80690000000000e+05	5.72188268687129e+01	-9.62390313784965e+01
6.90700000000000e+05	5.70777971361095e+01	-9.68930823854327e+01
7.00710000000000e+05	5.69376113891169e+01	-9.75368194242549e+01
7.10720000000000e+05	5.67982628122960e+01	-9.81704960338940e+01
7.20730000000000e+05	5.66597444409643e+01	-9.87943563306225e+01
7.30740000000000e+05	5.65220491917394e+01	-9.94086354596995e+01
7.40750000000000e+05	5.63851698896323e+01	-1.00013560020958e+02
7.50760000000000e+05	5.62490992920936e+01	-1.00609348476603e+02
7.60770000000000e+05	5.61138301102555e+01	-1.01196211533450e+02
7.70780000000000e+05	5.59793550277075e+01	-1.01774352508568e+02
7.80790000000000e+05	5.58456667170219e+01	-1.02343967674287e+02
7.90800000000000e+05	5.57127578542745e+01	-1.02905246586525e+02
8.00810000000000e+05	5.55806211317604e+01	-1.03458372393895e+02
8.10820000000000e+05	5.54492492690964e+01	-1.04003522131654e+02
8.20830000000000e+05	5.53186350228668e+01	-1.04540867001352e+02
8.30840000000000e+05	5.51887711949817e+01	-1.05070572633368e+02
8.40850000000000e+05	5.50596506398686e+01	-1.05592799337870e+02
8.50860000000000e+05	5.49312662706337e+01	-1.06107702340376e+02
8.60870000000000e+05	5.48036110642934e+01	-1.06615432006948e+02
8.70880000000000e+05	5.46766780661809e+01	-1.07116134056814e+02
8.80890000000000e+05	5.45504603936183e+01	-1.07609949763839e+02
8.90900000000000e+05	5.44249512389528e+01	-1.08097016145940e+02
9.00910000000000e+05	5.43001438719755e+01	-1.08577466148700e+02
9.10920000000000e+05	5.41760316418673e+01	-1.09051428814892e+02
9.20930000000000e+05	5.40526079786640e+01	-1.09519029448247e+02
9.30940000000000e+05	5.39298663943390e+01	-1.09980389766852e+02
9.40950000000000e+05	5.38078004835035e+01	-1.10435628051421e+02
9.50960000000000e+05	5.36864039238348e+01	-1.10884859282422e+02
9.60970000000000e+05	5.35656704762193e+01	-1.11328195272163e+02
9.70980000000000e+05	5.34455939846199e+01	-1.11765744791944e+02
9.80990000000000e+05	5.33261683758041e+01	-1.12197613689059e+02
9.91000000000000e+05	5.32073876588491e+01	-1.12623905000500e+02
1.00101000000000e+06	5.30892459244928e+01	-1.13044719061002e+02
1.01102000000000e+06	5.29717373443992e+01	-1.13460153603610e+02
1.02103000000000e+06	5.28548561702165e+01	-1.13870303859601e+02
1.03104000000000e+06	5.27385967326721e+01	-1.14275262647697e+02
1.04105000000000e+06	5.26229534404649e+01	-1.14675120464628e+02
1.05106000000000e+06	5.25079207791694e+01	-1.15069965567707e+02
1.06107000000000e+06	5.23934933100845e+01	-1.15459884053919e+02
1.07108000000000e+06	5.22796656689563e+01	-1.15844959938729e+02
1.08109000000000e+06	5.21664325648238e+01	-1.16225275224641e+02
1.09110000000000e+06	5.20537887786639e+01	-1.16600909974070e+02
1.10111000000000e+06	5.19417291621784e+01	-1.16971942372429e+02
1.11112000000000e+06	5.18302486364591e+01	-1.17338448792691e+02
1.12113000000000e+06	5.17193421907066e+01	-1.17700503854899e+02
1.13114000000000e+06	5.16090048809355e+01	-1.18058180483695e+02
1.14115000000000e+06	5.14992318286811e+01	-1.18411549963146e+02
1.15116000000000e+06	5.13900182197164e+01	-1.18760681989457e+02
1.16117000000000e+06	5.12813593028209e+01	-1.19105644719867e+02
1.17118000000000e+06	5.11732503884755e+01	-1.19446504822568e+02
1.18119000000000e+06	5.10656868476556e+01	-1.19783327521587e+02
1.19120000000000e+06	5.09586641106317e+01	-1.20116176640487e+02
1.20121000000000e+06	5.08521776657552e+01	-1.20445114645216e+02
1.21122000000000e+06	5.07462230582981e+01	-1.20770202684139e+02
1.22123000000000e+06	5.06407958893048e+01	-1.21091500626979e+02
1.23124000000000e+06	5.05358918144591e+01	-1.21409067102268e+02
1.24125000000000e+06	5.04315065430309e+01	-1.21722959531735e+02
1.25126000000000e+06	5.03276358367473e+01	-1.22033234166444e+02
1.26127000000000e+06	5.02242755087742e+01	-1.22339946118729e+02
1.27128000000000e+06	5.01214214227178e+01	-1.22643149393370e+02
1.28129000000000e+06	5.00190694915837e+01	-1.22942896919353e+02
1.29130000000000e+06	4.99172156768504e+01	-1.23239240577922e+02
1.30131000000000e+06	4.98158559875048e+01	-1.23532231231418e+02
1.31132000000000e+06	4.97149864791335e+01	-1.23821918750212e+02
1.32133000000000e+06	4.96146032530196e+01	-1.24108352039006e+02
1.33134000000000e+06	4.95147024553059e+01	-1.24391579061315e+02
1.34135000000000e+06	4.94152802760982e+01	-1.24671646865070e+02
1.35136000000000e+06	4.93163329486883e+01	-1.24948601604917e+02
1.36137000000000e+06	4.92178567487474e+01	-1.25222488565085e+02
1.37138000000000e+06	4.91198479935343e+01	-1.25493352181570e+02
1.38139000000000e+06	4.90223030411760e+01	-1.25761236062402e+02
1.39140000000000e+06	4.89252182898930e+01	-1.26026183009073e+02
1.40141000000000e+06	4.88285901773247e+01	-1.26288235035303e+02
1.41142000000000e+06	4.87324151798261e+01	-1.26547433386370e+02
1.42143000000000e+06	4.86366898117925e+01	-1.26803818557549e+02
1.43144000000000e+06	4.85414106250139e+01	-1.27057430311901e+02
1.44145000000000e+06	4.84465742080426e+01	-1.27308307697313e+02
1.45146000000000e+06	4.83521771855698e+01	-1.27556489063454e+02
1.46147000000000e+06	4.82582162178450e+01	-1.27802012077498e+02
1.47148000000000e+06	4.81646880000659e+01	-1.28044913740417e+02
1.48149000000000e+06	4.80715892618603e+01	-1.28285230401111e+02
1.49150000000000e+06	4.79789167666823e+01	-1.28522997772273e+02
1.50151000000000e+06	4.78866673113041e+01	-1.28758250944170e+02
1.51152000000000e+06	4.77948377253097e+01	-1.28991024398037e+02
1.52153000000000e+06	4.77034248705726e+01	-1.29221352020039e+02
1.53154000000000e+06	4.76124256407589e+01	-1.29449267114283e+02
1.54155000000000e+06	4.75218369608544e+01	-1.29674802415365e+02
1.55156000000000e+06	4.74316557867174e+01	-1.29897990100307e+02
1.56157000000000e+06	4.73418791045878e+01	-1.30118861801269e+02
1.57158000000000e+06	4.72525039306694e+01	-1.30337448616578e+02
1.58159000000000e+06	4.71635273106958e+01	-1.30553781122166e+02
1.59160000000000e+06	4.70749463195074e+01	-1.30767889382589e+02
1.60161000000000e+06	4.69867580606445e+01	-1.30979802961569e+02
1.61162000000000e+06	4.68989596659450e+01	-1.31189550932536e+02
1.62163000000000e+06	4.68115482951373e+01	-1.31397161889073e+02
1.63164000000000e+06	4.67245211355001e+01	-1.31602663953898e+02
1.64165000000000e+06	4.66378754014550e+01	-1.31806084789225e+02
1.65166000000000e+06	4.65516083342145e+01	-1.32007451605820e+02
1.66167000000000e+06	4.64657172014409e+01	-1.32206791171956e+02
1.67168000000000e+06	4.63801992968744e+01	-1.32404129822650e+02
1.68169000000000e+06	4.62950519400153e+01	-1.32599493467915e+02
1.69170000000000e+06	4.62102724757832e+01	-1.32792907601457e+02
1.70171000000000e+06	4.61258582741920e+01	-1.32984397308856e+02
1.71172000000000e+06	4.60418067300456e+01	-1.33173987275269e+02
1.72173000000000e+06	4.59581152626090e+01	-1.33361701793703e+02
1.73174000000000e+06	4.58747813153102e+01	-1.33547564772485e+02
1.74175000000000e+06	4.57918023554639e+01	-1.33731599742236e+02
1.75176000000000e+06	4.57091758739500e+01	-1.33913829863849e+02
1.76177000000000e+06	4.56268993849310e+01	-1.34094277935332e+02
1.77178000000000e+06	4.55449704256019e+01	-1.34272966398297e+02
1.78179000000000e+06	4.54633865558811e+01	-1.34449917345327e+02
1.79180000000000e+06	4.53821453581484e+01	-1.34625152526368e+02
1.80181000000000e+06	4.53012444370021e+01	-1.34798693354922e+02
1.81182000000000e+06	4.52206814189703e+01	-1.34970560914654e+02
1.82183000000000e+06	4.51404539522821e+01	-1.35140775965303e+02
1.83184000000000e+06	4.50605597065903e+01	-1.35309358949114e+02
1.84185000000000e+06	4.49809963727534e+01	-1.35476329996066e+02
1.85186000000000e+06	4.49017616625697e+01	-1.35641708930299e+02
1.86187000000000e+06	4.48228533085635e+01	-1.35805515275100e+02
1.87188000000000e+06	4.47442690637196e+01	-1.35967768259085e+02
1.88189000000000e+06	4.46660067012964e+01	-1.36128486820774e+02
1.89190000000000e+06	4.45880640145607e+01	-1.36287689614538e+02
1.90191000000000e+06	4.45104388165896e+01	-1.36445395015337e+02
1.91192000000000e+06	4.44331289400359e+01	-1.36601621124051e+02
1.92193000000000e+06	4.43561322369325e+01	-1.36756385771919e+02
1.93194000000000e+06	4.42794465784593e+01	-1.36909706525947e+02
1.94195000000000e+06	4.42030698547563e+01	-1.37061600693043e+02
1.95196000000000e+06	4.41269999746973e+01	-1.37212085325115e+02
1.96197000000000e+06	4.40512348657004e+01	-1.37361177223305e+02
1.97198000000000e+06	4.39757724735238e+01	-1.37508892942518e+02
1.98199000000000e+06	4.39006107620724e+01	-1.37655248795636e+02
1.99200000000000e+06	4.38257477132051e+01	-1.37800260857879e+02
2.00201000000000e+06	4.37511813265392e+01	-1.37943944970827e+02
2.01202000000000e+06	4.36769096192633e+01	-1.38086316746657e+02
2.02203000000000e+06	4.36029306259618e+01	-1.38227391571851e+02
2.03204000000000e+06	4.35292423984133e+01	-1.38367184611431e+02
2.04205000000000e+06	4.34558430054241e+01	-1.38505710812530e+02
2.05206000000000e+06	4.33827305326438e+01	-1.38642984908251e+02
2.06207000000000e+06	4.33099030824055e+01	-1.38779021421059e+02
2.07208000000000e+06	4.32373587735186e+01	-1.38913834666971e+02
2.08209000000000e+06	4.31650957411306e+01	-1.39047438758463e+02
2.09210000000000e+06	4.30931121365493e+01	-1.39179847608064e+02
2.10211000000000e+06	4.30214061270691e+01	-1.39311074931960e+02
2.11212000000000e+06	4.29499758958065e+01	-1.39441134253222e+02
2.12213000000000e+06	4.28788196415352e+01	-1.39570038905094e+02
2.13214000000000e+06	4.28079355785505e+01	-1.39697802033700e+02
2.14215000000000e+06	4.27373219364825e+01	-1.39824436601823e+02
2.15216000000000e+06	4.26669769601429e+01	-1.39949955391761e+02
2.16217000000000e+06	4.25968989093862e+01	-1.40074371008036e+02
2.17218000000000e+06	4.25270860589446e+01	-1.40197695880692e+02
2.18219000000000e+06	4.24575366982817e+01	-1.40319942267983e+02
2.19220000000000e+06	4.23882491314323e+01	-1.40441122259414e+02
2.20221000000000e+06	4.23192216768741e+01	-1.40561247778222e+02
2.21222000000000e+06	4.22504526673759e+01	-1.40680330584187e+02
2.22223000000000e+06	4.21819404498434e+01	-1.40798382276484e+02
2.23224000000000e+06	4.21136833851861e+01	-1.40915414296141e+02
2.24225000000000e+06	4.20456798481682e+01	-1.41031437928756e+02
2.25226000000000e+06	4.19779282272939e+01	-1.41146464306637e+02
2.26227000000000e+06	4.19104269246332e+01	-1.41260504411838e+02
2.27228000000000e+06	4.18431743557236e+01	-1.41373569078019e+02
2.28229000000000e+06	4.17761689494063e+01	-1.41485668993292e+02
2.29230000000000e+06	4.17094091477090e+01	-1.41596814702339e+02
2.30231000000000e+06	4.16428934057076e+01	-1.41707016608755e+02
2.31232000000000e+06	4.15766201914086e+01	-1.41816284977172e+02
2.32233000000000e+06	4.15105879856098e+01	-1.41924629935617e+02
2.33234000000000e+06	4.14447952817670e+01	-1.42032061477769e+02
2.34235000000000e+06	4.13792405858935e+01	-1.42138589464762e+02
2.35236000000000e+06	4.13139224164114e+01	-1.42244223627572e+02
2.36237000000000e+06	4.12488393040402e+01	-1.42348973568950e+02
2.37238000000000e+06	4.11839897916716e+01	-1.42452848765522e+02
2.38239000000000e+06	4.11193724342567e+01	-1.42555858569598e+02
2.39240000000000e+06	4.10549857986816e+01	-1.42658012211219e+02
2.40241000000000e+06	4.09908284636479e+01	-1.42759318800125e+02
2.41242000000000e+06	4.09268990195623e+01	-1.42859787327539e+02
2.42243000000000e+06	4.08631960684218e+01	-1.42959426667982e+02
2.43244000000000e+06	4.07997182236968e+01	-1.43058245581129e+02
2.44245000000000e+06	4.07364641102142e+01	-1.43156252713692e+02
2.45246000000000e+06	4.06734323640619e+01	-1.43253456600903e+02
2.46247000000000e+06	4.06106216324713e+01	-1.43349865668292e+02
2.47248000000000e+06	4.05480305736864e+01	-1.43445488233817e+02
2.48249000000000e+06	4.04856578569124e+01	-1.43540332508560e+02
2.49250000000000e+06	4.04235021621361e+01	-1.43634406599525e+02
2.50251000000000e+06	4.03615621800854e+01	-1.43727718510183e+02
2.51252000000000e+06	4.02998366120871e+01	-1.43820276142692e+02
2.52253000000000e+06	4.02383241699791e+01	-1.43912087299172e+02
2.53254000000000e+06	4.01770235760029e+01	-1.44003159683254e+02
2.54255000000000e+06	4.01159335627052e+01	-1.44093500901653e+02
2.55256000000000e+06	4.00550528728408e+01	-1.44183118465411e+02
2.56257000000000e+06	3.99943802592659e+01	-1.44272019791633e+02
2.57258000000000e+06	3.99339144848571e+01	-1.44360212204496e+02
2.58259000000000e+06	3.98736543223875e+01	-1.44447702937139e+02
2.59260000000000e+06	3.98135985544588e+01	-1.44534499132579e+02
2.60261000000000e+06	3.97537459733953e+01	-1.44620607845206e+02
2.61262000000000e+06	3.96940953811449e+01	-1.44706036042216e+02
2.62263000000000e+06	3.96346455892008e+01	-1.44790790604626e+02
2.63264000000000e+06	3.95753954184943e+01	-1.44874878328834e+02
2.64265000000000e+06	3.95163436993157e+01	-1.44958305927698e+02
2.65266000000000e+06	3.94574892712178e+01	-1.45041080031833e+02
2.66267000000000e+06	3.93988309829364e+01	-1.45123207190635e+02
2.67268000000000e+06	3.93403676922900e+01	-1.45204693873807e+02
2.68269000000000e+06	3.92820982661009e+01	-1.45285546472238e+02
2.69270000000000e+06	3.92240215801127e+01	-1.45365771299189e+02
2.70271000000000e+06	3.91661365188911e+01	-1.45445374591599e+02
2.71272000000000e+06	3.91084419757693e+01	-1.45524362510780e+02
2.72273000000000e+06	3.90509368527196e+01	-1.45602741144143e+02
2.73274000000000e+06	3.89936200603123e+01	-1.45680516505688e+02
2.74275000000000e+06	3.89364905176179e+01	-1.45757694537270e+02
2.75276000000000e+06	3.88795471521226e+01	-1.45834281109725e+02
2.76277000000000e+06	3.88227888996581e+01	-1.45910282023718e+02
2.77278000000000e+06	3.87662147043135e+01	-1.45985703010865e+02
2.78279000000000e+06	3.87098235183662e+01	-1.46060549734643e+02
2.79280000000000e+06	3.86536143021953e+01	-1.46134827791446e+02
2.80281000000000e+06	3.85975860242167e+01	-1.46208542711359e+02
2.81282000000000e+06	3.85417376607925e+01	-1.46281699959398e+02
2.82283000000000e+06	3.84860681961729e+01	-1.46354304936052e+02
2.83284000000000e+06	3.84305766224095e+01	-1.46426362978481e+02
2.84285000000000e+06	3.83752619392899e+01	-1.46497879361249e+02
2.85286000000000e+06	3.83201231542551e+01	-1.46568859297359e+02
2.86287000000000e+06	3.82651592823410e+01	-1.46639307938907e+02
2.87288000000000e+06	3.82103693460981e+01	-1.46709230378070e+02
2.88289000000000e+06	3.81557523755257e+01	-1.46778631647870e+02
2.89290000000000e+06	3.81013074079978e+01	-1.46847516723141e+02
2.90291000000000e+06	3.80470334882030e+01	-1.46915890521061e+02
2.91292000000000e+06	3.79929296680630e+01	-1.46983757902207e+02
2.92293000000000e+06	3.79389950066808e+01	-1.47051123671254e+02
2.93294000000000e+06	3.78852285702625e+01	-1.47117992577588e+02
2.94295000000000e+06	3.78316294320545e+01	-1.47184369316396e+02
2.95296000000000e+06	3.77781966722786e+01	-1.47250258529092e+02
2.96297000000000e+06	3.77249293780677e+01	-1.47315664804254e+02
2.97298000000000e+06	3.76718266434057e+01	-1.47380592678149e+02
2.98299000000000e+06	3.76188875690582e+01	-1.47445046635636e+02
2.99300000000000e+06	3.75661112625119e+01	-1.47509031110745e+02
3.00301000000000e+06	3.75134968379111e+01	-1.47572550487482e+02
3.01302000000000e+06	3.74610434159988e+01	-1.47635609100398e+02
3.02303000000000e+06	3.74087501240611e+01	-1.47698211235186e+02
3.03304000000000e+06	3.73566160958533e+01	-1.47760361129586e+02
3.04305000000000e+06	3.73046404715558e+01	-1.47822062973788e+02
3.05306000000000e+06	3.72528223977034e+01	-1.47883320911170e+02
3.06307000000000e+06	3.72011610271324e+01	-1.47944139038967e+02
