Freq.	Vn001)
1.00000000000000e+01	6.65584896984423e+01	-2.42608290478841e-03
1.00200000000000e+04	6.65531691035797e+01	-2.43017966821162e+00
2.00300000000000e+04	6.65372633093635e+01	-4.85342410860761e+00
3.00400000000000e+04	6.65108749839568e+01	-7.26772184649313e+00
4.00500000000000e+04	6.64741713717736e+01	-9.66875831289371e+00
5.00600000000000e+04	6.64273805504191e+01	-1.20523909150550e+01
6.00700000000000e+04	6.63707869554962e+01	-1.44146956966420e+01
7.00800000000000e+04	6.63047257665809e+01	-1.67520096564870e+01
8.00900000000000e+04	6.62295763138931e+01	-1.90609656618767e+01
9.01000000000000e+04	6.61457548785035e+01	-2.13385185909424e+01
1.00110000000000e+05	6.60537072306249e+01	-2.35819625742324e+01
1.10120000000000e+05	6.59539011882040e+01	-2.57889397752498e+01
1.20130000000000e+05	6.58468194158862e+01	-2.79574414055928e+01
1.30140000000000e+05	6.57329526484215e+01	-3.00858018681933e+01
1.40150000000000e+05	6.56127934764270e+01	-3.21726870375329e+01
1.50160000000000e+05	6.54868307914219e+01	-3.42170777513813e+01
1.60170000000000e+05	6.53555449515401e+01	-3.62182496123867e+01
1.70180000000000e+05	6.52194036884553e+01	-3.81757501367095e+01
1.80190000000000e+05	6.50788587528741e+01	-4.00893742325045e+01
1.90200000000000e+05	6.49343432666544e+01	-4.19591388629336e+01
2.00210000000000e+05	6.47862697327831e+01	-4.37852576259463e+01
2.10220000000000e+05	6.46350286426002e+01	-4.55681158534390e+01
2.20230000000000e+05	6.44809876129442e+01	-4.73082467068388e+01
2.30240000000000e+05	6.43244909811573e+01	-4.90063086155369e+01
2.40250000000000e+05	6.41658597876848e+01	-5.06630643028459e+01
2.50260000000000e+05	6.40053920783549e+01	-5.22793615465383e+01
2.60270000000000e+05	6.38433634646286e+01	-5.38561157526675e+01
2.70280000000000e+05	6.36800278829539e+01	-5.53942943364676e+01
2.80290000000000e+05	6.35156185057052e+01	-5.68949028902634e+01
2.90300000000000e+05	6.33503487575071e+01	-5.83589730428577e+01
3.00310000000000e+05	6.31844134018273e+01	-5.97875519241988e+01
3.10320000000000e+05	6.30179896653304e+01	-6.11816931045473e+01
3.20330000000000e+05	6.28512383764412e+01	-6.25424488975004e+01
3.30340000000000e+05	6.26843050966112e+01	-6.38708638871209e+01
3.40350000000000e+05	6.25173212281355e+01	-6.51679695470225e+01
3.50360000000000e+05	6.23504050882965e+01	-6.64347798471599e+01
3.60370000000000e+05	6.21836629387737e+01	-6.76722877084299e+01
3.70380000000000e+05	6.20171899660571e+01	-6.88814622168692e+01
3.80390000000000e+05	6.18510712073205e+01	-7.00632464791548e+01
3.90400000000000e+05	6.16853824210033e+01	-7.12185560455228e+01
4.00410000000000e+05	6.15201909003551e+01	-7.23482778063629e+01
4.10420000000000e+05	6.13555562308519e+01	-7.34532692964992e+01
4.20430000000000e+05	6.11915309923690e+01	-7.45343583384288e+01
4.30440000000000e+05	6.10281614081768e+01	-7.55923429712356e+01
4.40450000000000e+05	6.08654879429606e+01	-7.66279916148808e+01
4.50460000000000e+05	6.07035458521658e+01	-7.76420434221790e+01
4.60470000000000e+05	6.05423656859951e+01	-7.86352087909982e+01
4.70480000000000e+05	6.03819737502587e+01	-7.96081699938906e+01
4.80490000000000e+05	6.02223925273952e+01	-8.05615819055869e+01
4.90500000000000e+05	6.00636410603271e+01	-8.14960728026549e+01
5.00510000000000e+05	5.99057353017272e+01	-8.24122452115126e+01
5.10520000000000e+05	5.97486884319046e+01	-8.33106768006408e+01
5.20530000000000e+05	5.95925111469254e+01	-8.41919212830059e+01
5.30540000000000e+05	5.94372119204214e+01	-8.50565093413592e+01
5.40550000000000e+05	5.92827972403455e+01	-8.59049495438969e+01
5.50560000000000e+05	5.91292718235551e+01	-8.67377292615716e+01
5.60570000000000e+05	5.89766388096902e+01	-8.75553155689732e+01
5.70580000000000e+05	5.88248999363217e+01	-8.83581561272718e+01
5.80590000000000e+05	5.86740556970736e+01	-8.91466800469375e+01
5.90600000000000e+05	5.85241054842316e+01	-8.99212987259450e+01
6.00610000000000e+05	5.83750477172626e+01	-9.06824066621420e+01
6.10620000000000e+05	5.82268799584666e+01	-9.14303822344533e+01
6.20630000000000e+05	5.80795990171558e+01	-9.21655884604770e+01
6.30640000000000e+05	5.79332010431414e+01	-9.28883737169638e+01
6.40650000000000e+05	5.77876816108763e+01	-9.35990724380664e+01
6.50660000000000e+05	5.76430357948636e+01	-9.42980057790553e+01
6.60670000000000e+05	5.74992582373060e+01	-9.49854822518896e+01
6.70680000000000e+05	5.73563432086870e+01	-9.56617983302565e+01
6.80690000000000e+05	5.72142846620573e+01	-9.63272390311556e+01
6.90700000000000e+05	5.70730762814627e+01	-9.69820784609697e+01
7.00710000000000e+05	5.69327115252971e+01	-9.76265803431502e+01
7.10720000000000e+05	5.67931836649116e+01	-9.82609985149545e+01
7.20730000000000e+05	5.66544858190072e+01	-9.88855773988206e+01
7.30740000000000e+05	5.65166109842754e+01	-9.95005524547590e+01
7.40750000000000e+05	5.63795520625604e+01	-1.00106150604026e+02
7.50760000000000e+05	5.62433018849912e+01	-1.00702590636765e+02
7.60770000000000e+05	5.61078532332974e+01	-1.01290083592074e+02
7.70780000000000e+05	5.59731988586698e+01	-1.01868833124841e+02
7.80790000000000e+05	5.58393314983627e+01	-1.02439035848753e+02
7.90800000000000e+05	5.57062438902950e+01	-1.03000881663099e+02
8.00810000000000e+05	5.55739287858435e+01	-1.03554554063886e+02
8.10820000000000e+05	5.54423789610177e+01	-1.04100230435773e+02
8.20830000000000e+05	5.53115872261899e+01	-1.04638082329668e+02
8.30840000000000e+05	5.51815464345254e+01	-1.05168275727381e+02
8.40850000000000e+05	5.50522494892455e+01	-1.05690971290683e+02
8.50860000000000e+05	5.49236893498684e+01	-1.06206324596413e+02
8.60870000000000e+05	5.47958590375045e+01	-1.06714486361963e+02
8.70880000000000e+05	5.46687516393419e+01	-1.07215602656951e+02
8.80890000000000e+05	5.45423603123933e+01	-1.07709815103404e+02
8.90900000000000e+05	5.44166782865771e+01	-1.08197261067905e+02
9.00910000000000e+05	5.42916988672345e+01	-1.08678073841127e+02
9.10920000000000e+05	5.41674154371233e+01	-1.09152382809455e+02
9.20930000000000e+05	5.40438214579499e+01	-1.09620313617962e+02
9.30940000000000e+05	5.39209104715152e+01	-1.10081988323628e+02
9.40950000000000e+05	5.37986761004928e+01	-1.10537525542205e+02
9.50960000000000e+05	5.36771120489012e+01	-1.10987040586729e+02
9.60970000000000e+05	5.35562121022917e+01	-1.11430645599779e+02
9.70980000000000e+05	5.34359701277281e+01	-1.11868449677526e+02
9.80990000000000e+05	5.33163800735115e+01	-1.12300558990049e+02
9.91000000000000e+05	5.31974359687756e+01	-1.12727076892974e+02
1.00101000000000e+06	5.30791319228952e+01	-1.13148104035144e+02
1.01102000000000e+06	5.29614621247679e+01	-1.13563738460964e+02
1.02103000000000e+06	5.28444208419785e+01	-1.13974075707754e+02
1.03104000000000e+06	5.27280024198941e+01	-1.14379208896925e+02
1.04105000000000e+06	5.26122012806451e+01	-1.14779228822891e+02
1.05106000000000e+06	5.24970119220442e+01	-1.15174224036940e+02
1.06107000000000e+06	5.23824289164984e+01	-1.15564280925621e+02
1.07108000000000e+06	5.22684469097992e+01	-1.15949483788414e+02
1.08109000000000e+06	5.21550606199517e+01	-1.16329914908932e+02
1.09110000000000e+06	5.20422648359229e+01	-1.16705654625228e+02
1.10111000000000e+06	5.19300544164525e+01	-1.17076781393468e+02
1.11112000000000e+06	5.18184242887226e+01	-1.17443371853998e+02
1.12113000000000e+06	5.17073694471855e+01	-1.17805500888141e+02
1.13114000000000e+06	5.15968849522277e+01	-1.18163241678647e+02
1.14115000000000e+06	5.14869659289856e+01	-1.18516665761871e+02
1.15116000000000e+06	5.13776075660537e+01	-1.18865843082132e+02
1.16117000000000e+06	5.12688051142884e+01	-1.19210842040571e+02
1.17118000000000e+06	5.11605538855511e+01	-1.19551729544567e+02
1.18119000000000e+06	5.10528492515501e+01	-1.19888571052056e+02
1.19120000000000e+06	5.09456866426143e+01	-1.20221430617299e+02
1.20121000000000e+06	5.08390615465934e+01	-1.20550370930773e+02
1.21122000000000e+06	5.07329695076312e+01	-1.20875453362654e+02
1.22123000000000e+06	5.06274061251270e+01	-1.21196737998860e+02
1.23124000000000e+06	5.05223670526106e+01	-1.21514283679429e+02
1.24125000000000e+06	5.04178479966508e+01	-1.21828148034775e+02
1.25126000000000e+06	5.03138447158396e+01	-1.22138387519137e+02
1.26127000000000e+06	5.02103530197718e+01	-1.22445057443582e+02
1.27128000000000e+06	5.01073687680246e+01	-1.22748212008381e+02
1.28129000000000e+06	5.00048878692002e+01	-1.23047904333108e+02
1.29130000000000e+06	4.99029062799856e+01	-1.23344186485741e+02
1.30131000000000e+06	4.98014200042305e+01	-1.23637109511071e+02
1.31132000000000e+06	4.97004250920276e+01	-1.23926723458299e+02
1.32133000000000e+06	4.95999176388791e+01	-1.24213077406325e+02
1.33134000000000e+06	4.94998937847998e+01	-1.24496219490210e+02
1.34135000000000e+06	4.94003497135467e+01	-1.24776196923990e+02
1.35136000000000e+06	4.93012816517589e+01	-1.25053056025759e+02
1.36137000000000e+06	4.92026858682155e+01	-1.25326842239231e+02
1.37138000000000e+06	4.91045586730642e+01	-1.25597600155944e+02
1.38139000000000e+06	4.90068964170904e+01	-1.25865373536280e+02
1.39140000000000e+06	4.89096954909913e+01	-1.26130205330077e+02
1.40141000000000e+06	4.88129523246811e+01	-1.26392137696248e+02
1.41142000000000e+06	4.87166633866143e+01	-1.26651212021921e+02
1.42143000000000e+06	4.86208251831356e+01	-1.26907468940675e+02
1.43144000000000e+06	4.85254342578338e+01	-1.27160948350543e+02
1.44145000000000e+06	4.84304871909300e+01	-1.27411689431143e+02
1.45146000000000e+06	4.83359805986548e+01	-1.27659730660751e+02
1.46147000000000e+06	4.82419111326801e+01	-1.27905109832089e+02
1.47148000000000e+06	4.81482754795275e+01	-1.28147864068543e+02
1.48149000000000e+06	4.80550703600471e+01	-1.28388029838615e+02
1.49150000000000e+06	4.79622925288439e+01	-1.28625642971471e+02
1.50151000000000e+06	4.78699387737676e+01	-1.28860738670769e+02
1.51152000000000e+06	4.77780059154083e+01	-1.29093351528628e+02
1.52153000000000e+06	4.76864908065773e+01	-1.29323515539422e+02
1.53154000000000e+06	4.75953903318455e+01	-1.29551264112478e+02
1.54155000000000e+06	4.75047014070618e+01	-1.29776630084913e+02
1.55156000000000e+06	4.74144209788880e+01	-1.29999645734238e+02
1.56157000000000e+06	4.73245460243788e+01	-1.30220342789672e+02
1.57158000000000e+06	4.72350735504953e+01	-1.30438752444924e+02
1.58159000000000e+06	4.71460005937353e+01	-1.30654905368358e+02
1.59160000000000e+06	4.70573242196918e+01	-1.30868831714614e+02
1.60161000000000e+06	4.69690415226342e+01	-1.31080561135642e+02
1.61162000000000e+06	4.68811496251495e+01	-1.31290122790386e+02
1.62163000000000e+06	4.67936456777207e+01	-1.31497545355705e+02
1.63164000000000e+06	4.67065268583853e+01	-1.31702857035620e+02
1.64165000000000e+06	4.66197903723386e+01	-1.31906085571424e+02
1.65166000000000e+06	4.65334334516043e+01	-1.32107258250705e+02
1.66167000000000e+06	4.64474533546454e+01	-1.32306401916996e+02
1.67168000000000e+06	4.63618473660650e+01	-1.32503542978013e+02
1.68169000000000e+06	4.62766127962354e+01	-1.32698707414999e+02
1.69170000000000e+06	4.61917469809896e+01	-1.32891920790778e+02
1.70171000000000e+06	4.61072472812978e+01	-1.33083208258102e+02
1.71172000000000e+06	4.60231110829588e+01	-1.33272594567575e+02
1.72173000000000e+06	4.59393357962600e+01	-1.33460104076208e+02
1.73174000000000e+06	4.58559188557385e+01	-1.33645760753733e+02
1.74175000000000e+06	4.57728577198163e+01	-1.33829588191556e+02
1.75176000000000e+06	4.56901498705612e+01	-1.34011609609123e+02
1.76177000000000e+06	4.56077928133807e+01	-1.34191847861279e+02
1.77178000000000e+06	4.55257840767534e+01	-1.34370325445254e+02
1.78179000000000e+06	4.54441212119390e+01	-1.34547064507689e+02
1.79180000000000e+06	4.53628017927383e+01	-1.34722086850767e+02
1.80181000000000e+06	4.52818234152138e+01	-1.34895413938944e+02
1.81182000000000e+06	4.52011836974273e+01	-1.35067066905479e+02
1.82183000000000e+06	4.51208802791847e+01	-1.35237066558592e+02
1.83184000000000e+06	4.50409108218171e+01	-1.35405433386914e+02
1.84185000000000e+06	4.49612730078973e+01	-1.35572187566199e+02
1.85186000000000e+06	4.48819645410158e+01	-1.35737348964694e+02
1.86187000000000e+06	4.48029831455570e+01	-1.35900937148701e+02
1.87188000000000e+06	4.47243265664378e+01	-1.36062971388482e+02
1.88189000000000e+06	4.46459925689103e+01	-1.36223470663169e+02
1.89190000000000e+06	4.45679789383121e+01	-1.36382453666515e+02
1.90191000000000e+06	4.44902834798539e+01	-1.36539938811771e+02
1.91192000000000e+06	4.44129040184155e+01	-1.36695944236652e+02
1.92193000000000e+06	4.43358383982977e+01	-1.36850487808802e+02
1.93194000000000e+06	4.42590844830509e+01	-1.37003587129908e+02
1.94195000000000e+06	4.41826401552302e+01	-1.37155259541164e+02
1.95196000000000e+06	4.41065033162126e+01	-1.37305522127374e+02
1.96197000000000e+06	4.40306718859982e+01	-1.37454391721593e+02
1.97198000000000e+06	4.39551438029962e+01	-1.37601884909758e+02
1.98199000000000e+06	4.38799170238356e+01	-1.37748018034856e+02
1.99200000000000e+06	4.38049895231685e+01	-1.37892807201371e+02
2.00201000000000e+06	4.37303592934855e+01	-1.38036268279232e+02
2.01202000000000e+06	4.36560243449203e+01	-1.38178416908085e+02
2.02203000000000e+06	4.35819827050746e+01	-1.38319268501091e+02
2.03204000000000e+06	4.35082324188212e+01	-1.38458838249062e+02
2.04205000000000e+06	4.34347715481310e+01	-1.38597141124239e+02
2.05206000000000e+06	4.33615981719003e+01	-1.38734191883882e+02
2.06207000000000e+06	4.32887103857673e+01	-1.38870005074080e+02
2.07208000000000e+06	4.32161063019350e+01	-1.39004595033545e+02
2.08209000000000e+06	4.31437840490053e+01	-1.39137975896857e+02
2.09210000000000e+06	4.30717417718178e+01	-1.39270161598000e+02
2.10211000000000e+06	4.29999776312722e+01	-1.39401165873781e+02
2.11212000000000e+06	4.29284898041538e+01	-1.39531002267410e+02
2.12213000000000e+06	4.28572764829987e+01	-1.39659684131284e+02
2.13214000000000e+06	4.27863358759092e+01	-1.39787224630544e+02
2.14215000000000e+06	4.27156662064025e+01	-1.39913636746115e+02
2.15216000000000e+06	4.26452657132575e+01	-1.40038933277704e+02
2.16217000000000e+06	4.25751326503479e+01	-1.40163126847046e+02
2.17218000000000e+06	4.25052652865106e+01	-1.40286229900490e+02
2.18219000000000e+06	4.24356619053725e+01	-1.40408254712242e+02
2.19220000000000e+06	4.23663208052109e+01	-1.40529213387008e+02
2.20221000000000e+06	4.22972402988000e+01	-1.40649117863012e+02
2.21222000000000e+06	4.22284187132738e+01	-1.40767979914434e+02
2.22223000000000e+06	4.21598543899838e+01	-1.40885811154169e+02
2.23224000000000e+06	4.20915456843421e+01	-1.41002623036572e+02
2.24225000000000e+06	4.20234909656791e+01	-1.41118426860217e+02
2.25226000000000e+06	4.19556886171397e+01	-1.41233233769743e+02
2.26227000000000e+06	4.18881370354835e+01	-1.41347054759386e+02
2.27228000000000e+06	4.18208346310178e+01	-1.41459900674246e+02
2.28229000000000e+06	4.17537798274040e+01	-1.41571782213662e+02
2.29230000000000e+06	4.16869710615611e+01	-1.41682709933071e+02
2.30231000000000e+06	4.16204067835208e+01	-1.41792694246344e+02
2.31232000000000e+06	4.15540854562998e+01	-1.41901745428100e+02
2.32233000000000e+06	4.14880055557675e+01	-1.42009873616041e+02
2.33234000000000e+06	4.14221655705201e+01	-1.42117088812954e+02
2.34235000000000e+06	4.13565640017573e+01	-1.42223400888977e+02
2.35236000000000e+06	4.12911993631560e+01	-1.42328819583611e+02
2.36237000000000e+06	4.12260701807500e+01	-1.42433354507793e+02
2.37238000000000e+06	4.11611749928036e+01	-1.42537015145954e+02
2.38239000000000e+06	4.10965123496980e+01	-1.42639810857903e+02
2.39240000000000e+06	4.10320808137930e+01	-1.42741750881132e+02
2.40241000000000e+06	4.09678789593396e+01	-1.42842844332205e+02
2.41242000000000e+06	4.09039053723369e+01	-1.42943100209019e+02
2.42243000000000e+06	4.08401586504335e+01	-1.43042527392470e+02
2.43244000000000e+06	4.07766374028045e+01	-1.43141134648339e+02
2.44245000000000e+06	4.07133402500431e+01	-1.43238930629062e+02
2.45246000000000e+06	4.06502658240396e+01	-1.43335923875602e+02
2.46247000000000e+06	4.05874127678963e+01	-1.43432122818712e+02
2.47248000000000e+06	4.05247797357766e+01	-1.43527535781368e+02
2.48249000000000e+06	4.04623653928381e+01	-1.43622170979735e+02
2.49250000000000e+06	4.04001684151083e+01	-1.43716036525057e+02
2.50251000000000e+06	4.03381874893711e+01	-1.43809140425401e+02
2.51252000000000e+06	4.02764213130759e+01	-1.43901490587017e+02
2.52253000000000e+06	4.02148685942304e+01	-1.43993094815934e+02
2.53254000000000e+06	4.01535280512899e+01	-1.44083960819538e+02
2.54255000000000e+06	4.00923984130634e+01	-1.44174096208079e+02
2.55256000000000e+06	4.00314784186181e+01	-1.44263508495940e+02
2.56257000000000e+06	3.99707668171715e+01	-1.44352205103300e+02
2.57258000000000e+06	3.99102623679973e+01	-1.44440193357400e+02
2.58259000000000e+06	3.98499638403239e+01	-1.44527480494082e+02
2.59260000000000e+06	3.97898700132485e+01	-1.44614073658949e+02
2.60261000000000e+06	3.97299796756327e+01	-1.44699979908855e+02
2.61262000000000e+06	3.96702916260101e+01	-1.44785206213181e+02
2.62263000000000e+06	3.96108046724935e+01	-1.44869759455199e+02
2.63264000000000e+06	3.95515176326897e+01	-1.44953646433159e+02
2.64265000000000e+06	3.94924293335962e+01	-1.45036873861769e+02
2.65266000000000e+06	3.94335386115228e+01	-1.45119448373233e+02
2.66267000000000e+06	3.93748443119978e+01	-1.45201376518560e+02
2.67268000000000e+06	3.93163452896777e+01	-1.45282664768677e+02
2.68269000000000e+06	3.92580404082538e+01	-1.45363319515882e+02
2.69270000000000e+06	3.91999285403939e+01	-1.45443347074399e+02
2.70271000000000e+06	3.91420085676159e+01	-1.45522753682198e+02
2.71272000000000e+06	3.90842793802324e+01	-1.45601545501620e+02
2.72273000000000e+06	3.90267398772637e+01	-1.45679728620599e+02
2.73274000000000e+06	3.89693889663442e+01	-1.45757309053838e+02
2.74275000000000e+06	3.89122255636489e+01	-1.45834292743706e+02
2.75276000000000e+06	3.88552485938071e+01	-1.45910685561489e+02
2.76277000000000e+06	3.87984569898274e+01	-1.45986493308149e+02
2.77278000000000e+06	3.87418496930179e+01	-1.46061721715470e+02
2.78279000000000e+06	3.86854256529042e+01	-1.46136376447065e+02
2.79280000000000e+06	3.86291838271545e+01	-1.46210463099249e+02
2.80281000000000e+06	3.85731231814940e+01	-1.46283987202232e+02
2.81282000000000e+06	3.85172426896474e+01	-1.46356954220652e+02
2.82283000000000e+06	3.84615413332475e+01	-1.46429369554855e+02
2.83284000000000e+06	3.84060181017693e+01	-1.46501238541593e+02
2.84285000000000e+06	3.83506719924516e+01	-1.46572566455030e+02
2.85286000000000e+06	3.82955020102166e+01	-1.46643358507722e+02
2.86287000000000e+06	3.82405071676255e+01	-1.46713619851074e+02
2.87288000000000e+06	3.81856864847672e+01	-1.46783355576759e+02
2.88289000000000e+06	3.81310389892280e+01	-1.46852570716938e+02
2.89290000000000e+06	3.80765637159876e+01	-1.46921270245693e+02
2.90291000000000e+06	3.80222597073748e+01	-1.46989459079373e+02
2.91292000000000e+06	3.79681260129812e+01	-1.47057142077650e+02
2.92293000000000e+06	3.79141616896080e+01	-1.47124324044125e+02
2.93294000000000e+06	3.78603658011915e+01	-1.47191009727218e+02
2.94295000000000e+06	3.78067374187261e+01	-1.47257203821080e+02
2.95296000000000e+06	3.77532756202328e+01	-1.47322910965755e+02
2.96297000000000e+06	3.76999794906473e+01	-1.47388135748747e+02
2.97298000000000e+06	3.76468481217946e+01	-1.47452882705043e+02
2.98299000000000e+06	3.75938806123099e+01	-1.47517156318172e+02
2.99300000000000e+06	3.75410760675705e+01	-1.47580961020809e+02
3.00301000000000e+06	3.74884335996411e+01	-1.47644301195571e+02
3.01302000000000e+06	3.74359523272178e+01	-1.47707181175435e+02
3.02303000000000e+06	3.73836313755502e+01	-1.47769605244723e+02
3.03304000000000e+06	3.73314698763972e+01	-1.47831577639554e+02
3.04305000000000e+06	3.72794669679548e+01	-1.47893102548579e+02
3.05306000000000e+06	3.72276217948088e+01	-1.47954184113567e+02
3.06307000000000e+06	3.71759335078740e+01	-1.48014826429937e+02
3.07308000000000e+06	3.71244012643184e+01	-1.48075033547746e+02
3.08309000000000e+06	3.70730242275350e+01	-1.48134809471805e+02
3.09310000000000e+06	3.70218015670621e+01	-1.48194158162638e+02
3.10311000000000e+06	3.69707324585384e+01	-1.48253083536910e+02
3.11312000000000e+06	3.69198160836491e+01	-1.48311589467954e+02
